# Frequency Average_Intensity Standard_Deviation
0.000000000000000000e+00 1.559396304099375417e-05 1.873478696637280219e-05
7.412535448888889711e+00 2.124775900719376402e-05 2.282679739849651103e-05
1.482507089777777942e+01 3.908356768833528969e-05 3.986338945401978189e-05
2.223760634666667002e+01 7.150789558948566094e-05 7.004522813212699713e-05
2.965014179555555884e+01 1.218661043308827613e-04 1.121734578560061043e-04
3.706267724444444411e+01 1.936183913292572223e-04 1.650429761858940379e-04
4.447521269333334004e+01 2.894528211986442342e-04 2.249926552029816627e-04
5.188774814222222886e+01 4.104685530370752152e-04 2.851122346269162745e-04
5.930028359111111769e+01 5.555074792766970032e-04 3.374385286011304412e-04
6.671281903999999940e+01 7.207043179254681410e-04 3.763843739851567604e-04
7.412535448888888823e+01 8.993829782399738373e-04 4.064299850356463471e-04
8.153788993777777705e+01 1.082498085239014729e-03 4.470568094715921155e-04
8.895042538666668008e+01 1.259800515276942581e-03 5.034973192492257906e-04
9.636296083555556891e+01 1.421708097542393693e-03 5.752348765740869594e-04
1.037754962844444577e+02 1.561486334718455811e-03 6.564199199859987229e-04
1.111880317333333466e+02 1.676996693609369201e-03 7.358411152685780934e-04
1.186005671822222354e+02 1.771177344242903361e-03 8.118104004705666964e-04
1.260131026311111242e+02 1.850773845093711591e-03 8.819038065973974511e-04
1.334256380799999988e+02 1.923549161381394885e-03 9.467733772633742237e-04
1.408381735288889161e+02 1.994988454775012843e-03 1.004910745220663091e-03
1.482507089777777765e+02 2.065916624050256022e-03 1.050355962993859780e-03
1.556632444266666937e+02 2.132148219546277802e-03 1.071695948333381988e-03
1.630757798755555541e+02 2.186431464398624121e-03 1.058514306557957821e-03
1.704883153244444713e+02 2.221841859740654544e-03 1.009258602689544829e-03
1.779008507733333602e+02 2.235066558327143595e-03 9.361824513790687006e-04
1.853133862222222490e+02 2.228055633786607016e-03 8.562346786962071873e-04
1.927259216711111378e+02 2.207298034900833858e-03 7.764202226508371083e-04
2.001384571199999982e+02 2.181134583126644131e-03 7.050516311146327181e-04
2.075509925688889155e+02 2.156421848641914933e-03 6.551781084986151157e-04
2.149635280177777759e+02 2.136123475802068506e-03 6.475528644889590657e-04
2.223760634666666931e+02 2.118843771074765698e-03 6.864988395812831982e-04
2.297885989155555535e+02 2.100341757870529714e-03 7.461750585979675873e-04
2.372011343644444707e+02 2.076093141614932663e-03 8.036574128764776290e-04
2.446136698133333596e+02 2.043554112570447265e-03 8.550904185680949796e-04
2.520262052622222484e+02 2.003053689731704341e-03 9.073201922622962327e-04
2.594387407111111656e+02 1.957022732715554564e-03 9.543785786899008786e-04
2.668512761599999976e+02 1.908188610780927469e-03 9.876588761475915256e-04
2.742638116088889433e+02 1.857825670427140901e-03 1.008192099573982725e-03
2.816763470577778321e+02 1.805061593740065525e-03 1.021562289827135112e-03
2.890888825066666641e+02 1.747573628151850942e-03 1.028368757239631667e-03
2.965014179555555529e+02 1.683217052589607021e-03 1.026964932247512478e-03
3.039139534044444417e+02 1.611614049017315959e-03 1.017444471992221076e-03
3.113264888533333874e+02 1.534833275858064460e-03 1.002827777265835867e-03
3.187390243022222762e+02 1.456792607911676449e-03 9.864757762218909123e-04
3.261515597511111082e+02 1.381774025342256181e-03 9.687260503299429532e-04
3.335640951999999970e+02 1.312826463629818792e-03 9.481208430512906658e-04
3.409766306488889427e+02 1.250797095731478407e-03 9.248026517643468791e-04
3.483891660977778315e+02 1.194332245099733684e-03 8.999721773599745483e-04
3.558017015466667203e+02 1.140620911314906959e-03 8.721178889246512800e-04
3.632142369955555523e+02 1.086454622798575884e-03 8.373476725880684693e-04
3.706267724444444980e+02 1.029153059679059970e-03 7.933333993745272797e-04
3.780393078933333868e+02 9.671880082761246961e-04 7.416717500732473902e-04
3.854518433422222756e+02 9.005068937448269806e-04 6.863803411987361462e-04
3.928643787911111076e+02 8.305949692404227674e-04 6.291945069132342822e-04
4.002769142399999964e+02 7.602190659832571817e-04 5.702959339210077628e-04
4.076894496888889421e+02 6.927786247724735703e-04 5.122314113343856426e-04
4.151019851377778309e+02 6.313220261017169497e-04 4.600495170199488527e-04
4.225145205866667197e+02 5.775398076782149595e-04 4.181139396724663161e-04
4.299270560355555517e+02 5.311944204992299695e-04 3.865893945750622476e-04
4.373395914844444974e+02 4.903380205813479258e-04 3.618994171483899940e-04
4.447521269333333862e+02 4.522761503845153241e-04 3.396125133965803350e-04
4.521646623822222750e+02 4.148344711048088562e-04 3.164584481272345235e-04
4.595771978311111070e+02 3.772841890902750963e-04 2.914229512759627895e-04
4.669897332800000527e+02 3.404721463146875003e-04 2.650777222153760009e-04
4.744022687288889415e+02 3.061500933543575436e-04 2.388259391007497916e-04
4.818148041777778303e+02 2.759383122372119292e-04 2.142370037207802914e-04
4.892273396266667191e+02 2.505069958347170460e-04 1.925828228652915646e-04
4.966398750755555511e+02 2.293700019685478912e-04 1.743017115583858048e-04
5.040524105244444968e+02 2.112877090755985285e-04 1.590489543218883176e-04
5.114649459733333856e+02 1.949453031114254699e-04 1.462798896515316157e-04
5.188774814222223313e+02 1.794911391402830285e-04 1.354791699542791199e-04
5.262900168711112201e+02 1.646925775516515247e-04 1.261513376207876018e-04
5.337025523199999952e+02 1.507381160713172229e-04 1.175457961227689056e-04
5.411150877688889977e+02 1.379031465084936347e-04 1.089054389066491181e-04
5.485276232177778866e+02 1.263080196729280519e-04 1.000323462181977542e-04
5.559401586666666617e+02 1.158680716889350847e-04 9.105984571930677044e-05
5.633526941155556642e+02 1.063916289006718063e-04 8.212314691314968179e-05
5.707652295644444393e+02 9.770563484559700428e-05 7.346090227112903135e-05
5.781777650133333282e+02 8.971955571759234458e-05 6.542656340257793450e-05
5.855903004622223307e+02 8.240993758510851302e-05 5.839967365080073837e-05
5.930028359111111058e+02 7.576666283929910637e-05 5.251539470836360352e-05
6.004153713600001083e+02 6.975043187717390350e-05 4.743323500957974024e-05
6.078279068088888835e+02 6.428478288370615583e-05 4.267551089651157282e-05
6.152404422577777723e+02 5.927355944168109754e-05 3.806087627438323266e-05
6.226529777066667748e+02 5.462548429324734332e-05 3.376319154964849297e-05
6.300655131555555499e+02 5.027179671790689213e-05 3.009658680929287337e-05
6.374780486044445524e+02 4.617502332107487290e-05 2.711143021880194399e-05
6.448905840533334413e+02 4.232961301415458222e-05 2.453917599528169594e-05
6.523031195022222164e+02 3.875473964907925038e-05 2.210909253812925684e-05
6.597156549511112189e+02 3.547925447030339399e-05 1.972915944386542572e-05
6.671281903999999940e+02 3.252331207870126699e-05 1.740774178826843551e-05
6.745407258488889966e+02 2.988554036810282588e-05 1.522875763127543218e-05
6.819532612977778854e+02 2.754300249937039421e-05 1.333481399273547420e-05
6.893657967466666605e+02 2.546285529858220728e-05 1.180657309030152104e-05
6.967783321955556630e+02 2.361630966145269480e-05 1.058181916004886205e-05
7.041908676444444382e+02 2.198468882363787720e-05 9.588742549138147965e-06
7.116034030933334407e+02 2.055428937363315900e-05 8.880058283456223256e-06
7.190159385422223295e+02 1.930606427057972448e-05 8.457398860985335860e-06
7.264284739911111046e+02 1.820985995128178585e-05 8.200436029561529921e-06
7.338410094400001071e+02 1.722859388858741857e-05 8.008593975881128275e-06
7.412535448888889960e+02 1.632926721661407280e-05 7.787970174843512921e-06
7.486660803377777711e+02 1.549240955504550699e-05 7.483596888582161037e-06
7.560786157866667736e+02 1.471299099051242288e-05 7.095136254122297643e-06
7.634911512355555487e+02 1.399262617065904451e-05 6.651929500746706627e-06
7.709036866844445512e+02 1.332885212897258649e-05 6.204052653884970401e-06
7.783162221333334401e+02 1.270874383439966440e-05 5.798832810973822425e-06
7.857287575822222152e+02 1.211075752558519572e-05 5.467345531900063390e-06
7.931412930311112177e+02 1.151321865073837031e-05 5.214914044144926015e-06
8.005538284799999929e+02 1.090464085024962603e-05 4.997484404921278536e-06
8.079663639288889954e+02 1.029025624875975136e-05 4.749182501816044392e-06
8.153788993777778842e+02 9.691715801268978628e-06 4.448449259741956510e-06
8.227914348266666593e+02 9.139857363668640148e-06 4.133787259567440682e-06
8.302039702755556618e+02 8.663578610882166669e-06 3.871055032424796784e-06
8.376165057244445507e+02 8.279472480123442564e-06 3.691463223041648862e-06
8.450290411733334395e+02 7.986788006373651887e-06 3.548086582406913561e-06
8.524415766222223283e+02 7.769524977660296249e-06 3.402678871588943445e-06
8.598541120711111034e+02 7.603930186621484348e-06 3.252305712897669153e-06
8.672666475200001059e+02 7.466816642419523815e-06 3.115573343090310913e-06
8.746791829688889948e+02 7.340257870297890166e-06 3.010701827668701373e-06
8.820917184177777699e+02 7.211251799756364057e-06 2.921775244394716620e-06
8.895042538666667724e+02 7.069023177780139476e-06 2.813048054534968263e-06
8.969167893155555475e+02 6.903987292608918804e-06 2.671777789090290946e-06
9.043293247644445501e+02 6.710455630148525262e-06 2.505863741009881154e-06
9.117418602133334389e+02 6.491116309828783799e-06 2.338967748099706653e-06
9.191543956622222140e+02 6.258886523305948132e-06 2.203225201097167145e-06
9.265669311111112165e+02 6.033112425731300677e-06 2.124641704380398300e-06
9.339794665600001053e+02 5.831412999461221315e-06 2.097552695901114804e-06
9.413920020088889942e+02 5.662120527908113334e-06 2.096607883137319580e-06
9.488045374577778830e+02 5.522295947222082151e-06 2.106468113651413149e-06
9.562170729066666581e+02 5.402362476525555970e-06 2.107108889885045317e-06
9.636296083555556606e+02 5.293707588532414231e-06 2.076150127249457718e-06
9.710421438044445495e+02 5.193881736146235337e-06 2.002412655914884036e-06
9.784546792533334383e+02 5.106285071957908164e-06 1.892334880784657837e-06
9.858672147022223271e+02 5.035677299362353754e-06 1.769394065568639812e-06
9.932797501511111022e+02 4.983562584178095276e-06 1.658957016641651865e-06
1.000692285600000105e+03 4.946911154904011618e-06 1.569513285185039623e-06
1.008104821048888994e+03 4.920487086227365349e-06 1.506081313767859661e-06
1.015517356497777882e+03 4.900398245071589537e-06 1.467172693015056490e-06
1.022929891946666771e+03 4.886262251942270460e-06 1.450643601271335793e-06
1.030342427395555660e+03 4.881142634810792660e-06 1.452003310521794710e-06
1.037754962844444663e+03 4.890230667019191821e-06 1.468949573802996096e-06
1.045167498293333438e+03 4.919437541888039067e-06 1.512466338860717606e-06
1.052580033742222440e+03 4.974154144414349300e-06 1.583464876226962927e-06
1.059992569191111215e+03 5.057811065972978167e-06 1.662980122926483260e-06
1.067405104639999990e+03 5.170511551839037760e-06 1.740591445597948613e-06
1.074817640088888993e+03 5.308966822914952752e-06 1.808267595264065687e-06
1.082230175537777995e+03 5.468657217905506137e-06 1.866181758799463071e-06
1.089642710986666771e+03 5.647304451410974739e-06 1.933978253274583755e-06
1.097055246435555773e+03 5.847062176362111145e-06 2.040514585216286959e-06
1.104467781884444548e+03 6.073402251478318620e-06 2.204795822715442919e-06
1.111880317333333323e+03 6.331689976678222602e-06 2.419720189293223075e-06
1.119292852782222099e+03 6.625233298177792202e-06 2.657072073984625149e-06
1.126705388231111328e+03 6.958037181172082584e-06 2.907338161468676815e-06
1.134117923680000104e+03 7.341247416766970718e-06 3.194416340081939689e-06
1.141530459128888879e+03 7.797553956356111229e-06 3.548061328533282066e-06
1.148942994577777881e+03 8.357610031894990152e-06 3.968938998094614885e-06
1.156355530026666656e+03 9.047790194411582426e-06 4.453202287449329297e-06
1.163768065475555659e+03 9.876081123263852888e-06 5.002879597301532284e-06
1.171180600924444661e+03 1.082610975548284723e-05 5.622724746259338780e-06
1.178593136373333436e+03 1.186555079381757575e-05 6.330285896319856433e-06
1.186005671822222212e+03 1.296678013874980017e-05 7.141567640067058625e-06
1.193418207271111214e+03 1.413115990439707014e-05 8.043061403075651880e-06
1.200830742720000217e+03 1.540694601113296974e-05 9.022016609232961780e-06
1.208243278168888992e+03 1.689339061139785375e-05 1.012912517701666822e-05
1.215655813617777767e+03 1.872643661548815220e-05 1.147651666190135182e-05
1.223068349066666769e+03 2.104348832975537774e-05 1.325958487557451232e-05
1.230480884515555545e+03 2.393139457460657143e-05 1.562848100856813728e-05
1.237893419964444547e+03 2.737638721249819338e-05 1.852436781979304676e-05
1.245305955413333550e+03 3.124928760130416634e-05 2.166906824658002359e-05
1.252718490862222325e+03 3.535902089762631953e-05 2.468645196267506652e-05
1.260131026311111100e+03 3.957576870201429364e-05 2.732785397514203316e-05
1.267543561760000102e+03 4.397189009250232440e-05 2.976263266778223185e-05
1.274956097208889105e+03 4.888953018998451168e-05 3.241088423444985091e-05
1.282368632657777880e+03 5.485747753806640228e-05 3.588255093835734694e-05
1.289781168106666883e+03 6.236399127295054977e-05 4.081234603847496870e-05
1.297193703555555658e+03 7.159854150845197174e-05 4.756497990499633884e-05
1.304606239004444433e+03 8.233117213934015768e-05 5.563319633424077676e-05
1.312018774453333435e+03 9.404023809102360918e-05 6.377390918061462497e-05
1.319431309902222438e+03 1.062437594524312057e-04 7.074682586445953211e-05
1.326843845351111213e+03 1.188354884977132375e-04 7.611557093192981079e-05
1.334256380799999988e+03 1.321884948913896844e-04 8.063964176243304310e-05
1.341668916248888991e+03 1.469230284004392566e-04 8.578572821140147760e-05
1.349081451697777993e+03 1.634616052416653243e-04 9.238059056124330623e-05
1.356493987146666768e+03 1.816587302524607023e-04 9.987864898653251854e-05
1.363906522595555771e+03 2.007658306900638747e-04 1.069267881826917334e-04
1.371319058044444546e+03 2.197699198660785203e-04 1.121158589498803181e-04
1.378731593493333321e+03 2.378886959932616772e-04 1.146087107298208736e-04
1.386144128942222551e+03 2.548951682617518538e-04 1.149898845314402325e-04
1.393556664391111326e+03 2.710774277693175742e-04 1.159137331379748889e-04
1.400969199840000101e+03 2.869129470881138871e-04 1.195335478351085311e-04
1.408381735288888876e+03 3.027406087827675969e-04 1.257851647872268355e-04
1.415794270737777879e+03 3.186806476162217763e-04 1.353344678634252232e-04
1.423206806186666881e+03 3.348110811571524672e-04 1.498344598098911196e-04
1.430619341635555656e+03 3.513639938950561441e-04 1.690918361495228142e-04
1.438031877084444659e+03 3.686823874111921613e-04 1.917816020894498293e-04
1.445444412533333434e+03 3.869272842446601075e-04 2.182541319987593904e-04
1.452856947982222209e+03 4.058455273211340796e-04 2.482393256524297520e-04
1.460269483431111212e+03 4.249969747495191863e-04 2.795655195742343963e-04
1.467682018880000214e+03 4.445469633348646601e-04 3.081970284777589054e-04
1.475094554328888989e+03 4.661801638989413604e-04 3.286853532934722239e-04
1.482507089777777992e+03 4.933284849023091868e-04 3.363717570816110209e-04
1.489919625226666767e+03 5.300632565731341547e-04 3.314305961530412828e-04
1.497332160675555542e+03 5.787315947793080255e-04 3.221839604891130779e-04
1.504744696124444545e+03 6.373304494671266831e-04 3.265710853074576593e-04
1.512157231573333547e+03 6.981049977556456378e-04 3.632620261684440860e-04
1.519569767022222322e+03 7.485000471737547362e-04 4.198494806141265384e-04
1.526982302471111097e+03 7.745412442641350786e-04 4.798524814341522142e-04
1.534394837920000100e+03 7.654288656835494392e-04 5.267687615855408834e-04
1.541807373368889102e+03 7.174433263423385778e-04 5.489684464974623141e-04
1.549219908817777878e+03 6.354936903656362894e-04 5.394268708445268835e-04
1.556632444266666880e+03 5.317337097591869153e-04 4.974760606960064403e-04
1.564044979715555655e+03 4.219626855039404598e-04 4.305091645844438190e-04
1.571457515164444430e+03 3.213832879127414546e-04 3.521696103665674510e-04
1.578870050613333660e+03 2.412889698199268513e-04 2.785349848132148503e-04
1.586282586062222435e+03 1.875537612102817634e-04 2.235284812326296649e-04
1.593695121511111211e+03 1.608857094341456680e-04 1.951134955017074684e-04
1.601107656959999986e+03 1.581513046075955599e-04 1.940536829870463068e-04
1.608520192408888988e+03 1.739757020749469125e-04 2.133519935482330496e-04
1.615932727857777991e+03 2.021159259419514753e-04 2.440761255745647429e-04
1.623345263306666766e+03 2.364975229684812465e-04 2.780535657659717803e-04
1.630757798755555768e+03 2.720132304657108457e-04 3.081548727438084196e-04
1.638170334204444544e+03 3.051414635202825791e-04 3.297515852477317681e-04
1.645582869653333319e+03 3.342710394718990822e-04 3.409340809881501451e-04
1.652995405102222549e+03 3.595393874283599840e-04 3.423896115855319102e-04
1.660407940551111324e+03 3.821087003305364367e-04 3.372388443180449622e-04
1.667820476000000099e+03 4.030718775286068175e-04 3.299576127571455597e-04
1.675233011448889101e+03 4.224224226613514902e-04 3.246493862127164723e-04
1.682645546897777876e+03 4.385808059739933207e-04 3.225921724582864929e-04
1.690058082346666879e+03 4.487472896333061538e-04 3.216035610565990245e-04
1.697470617795555654e+03 4.499790654198081163e-04 3.175946270440496949e-04
1.704883153244444657e+03 4.405116208661248806e-04 3.065796534325517398e-04
1.712295688693333432e+03 4.207045263280789825e-04 2.868879137013447206e-04
1.719708224142222207e+03 3.931467383162974560e-04 2.600030810972807707e-04
1.727120759591111437e+03 3.618425794011566332e-04 2.296377631035292975e-04
1.734533295040000212e+03 3.308482343323536118e-04 2.002791769027608706e-04
1.741945830488888987e+03 3.029777613664724279e-04 1.753500784590269340e-04
1.749358365937777990e+03 2.791409492867503767e-04 1.561258241592332775e-04
1.756770901386666765e+03 2.585436465332763734e-04 1.421079510927094583e-04
1.764183436835555540e+03 2.395482814676875541e-04 1.310610337122761595e-04
1.771595972284444770e+03 2.207004364130734015e-04 1.202503443602398226e-04
1.779008507733333545e+03 2.014153923981220338e-04 1.083672228312418628e-04
1.786421043182222320e+03 1.820650840483931630e-04 9.562929435998837201e-05
1.793833578631111095e+03 1.635577153362414331e-04 8.295029194567120757e-05
1.801246114080000098e+03 1.467436611357357990e-04 7.120264264214909075e-05
1.808658649528889100e+03 1.320043391454867238e-04 6.135877028543265167e-05
1.816071184977777875e+03 1.191993700818349638e-04 5.400571886981181760e-05
1.823483720426666878e+03 1.079073943994729689e-04 4.842976765731956090e-05
1.830896255875555653e+03 9.774586999067613237e-05 4.385250511510101787e-05
1.838308791324444428e+03 8.855924821200751053e-05 3.994156530686141036e-05
1.845721326773333658e+03 8.040015852426123902e-05 3.663430705325521964e-05
1.853133862222222433e+03 7.336947766408713912e-05 3.383546671825931283e-05
1.860546397671111208e+03 6.745379094945509431e-05 3.156288676456320795e-05
1.867958933120000211e+03 6.246449122698185163e-05 2.981895219872483140e-05
1.875371468568888986e+03 5.809587637057996533e-05 2.821239355034513456e-05
1.882784004017777988e+03 5.404212598933651245e-05 2.638117092287141406e-05
1.890196539466666763e+03 5.009555810848074321e-05 2.432655379565743770e-05
1.897609074915555766e+03 4.618018156909091371e-05 2.225179373158582614e-05
1.905021610364444541e+03 4.232592575704740851e-05 2.030382661184899592e-05
1.912434145813333316e+03 3.861744382076613528e-05 1.850939880437537925e-05
1.919846681262222546e+03 3.515031275393260907e-05 1.683278150176008558e-05
1.927259216711111321e+03 3.200688426489282673e-05 1.523497313707973979e-05
1.934671752160000096e+03 2.924521785239217448e-05 1.375657237511719038e-05
1.942084287608889099e+03 2.689087301902808334e-05 1.250963613909015688e-05
1.949496823057777874e+03 2.492841452348101340e-05 1.157097162622073852e-05
1.956909358506666877e+03 2.329853949129239153e-05 1.087428678287729820e-05
1.964321893955555879e+03 2.190809679059062246e-05 1.026205846114469224e-05
