# Frequency Average_Intensity Standard_Deviation
0.000000000000000000e+00 7.865197453012099174e-05 1.938715992661578296e-05
8.895042538666666943e+00 8.675645632709699361e-05 2.055066968502041483e-05
1.779008507733333389e+01 1.111377702454985437e-04 2.437883119374637856e-05
2.668512761600000260e+01 1.519841856011374867e-04 3.124204977058524636e-05
3.558017015466666777e+01 2.095613778216903376e-04 4.093809134464170305e-05
4.447521269333334004e+01 2.841397513547459287e-04 5.300729075844741846e-05
5.337025523200000521e+01 3.758967841114757482e-04 6.710742372367636463e-05
6.226529777066667037e+01 4.847996375843246423e-04 8.306537347625333318e-05
7.116034030933333554e+01 6.104714619398160600e-04 1.007728331106980672e-04
8.005538284800000781e+01 7.520584317070772061e-04 1.201192920360942746e-04
8.895042538666668008e+01 9.081035803587839822e-04 1.410165787036374394e-04
9.784546792533333814e+01 1.076452577013280783e-03 1.634294286389001004e-04
1.067405104640000104e+02 1.254192794202814085e-03 1.872416298018488208e-04
1.156355530026666827e+02 1.437657458832426868e-03 2.119779909567042473e-04
1.245305955413333407e+02 1.622487736741799443e-03 2.364891527171988233e-04
1.334256380799999988e+02 1.803776395174405342e-03 2.589387151541825706e-04
1.423206806186666711e+02 1.976278847042912522e-03 2.772151416421582155e-04
1.512157231573333434e+02 2.134682528873160703e-03 2.897201929862608535e-04
1.601107656960000156e+02 2.273931813753601698e-03 2.963761543041924123e-04
1.690058082346666879e+02 2.389583414660949919e-03 2.994226377140295128e-04
1.779008507733333602e+02 2.478129797557279256e-03 3.034839590189211418e-04
1.867958933120000040e+02 2.537321092769564100e-03 3.140338457524598399e-04
1.956909358506666763e+02 2.566373536953204387e-03 3.343221898973933984e-04
2.045859783893333486e+02 2.566098436201996562e-03 3.630006624195266079e-04
2.134810209280000208e+02 2.538880668492784869e-03 3.947472551415491982e-04
2.223760634666666931e+02 2.488497729657083556e-03 4.229980707438808643e-04
2.312711060053333654e+02 2.419819312185865403e-03 4.423809068274703500e-04
2.401661485440000376e+02 2.338362923596895657e-03 4.500657017792655400e-04
2.490611910826666815e+02 2.249762530210763951e-03 4.462085728939943637e-04
2.579562336213333538e+02 2.159239201878084425e-03 4.337831710715730625e-04
2.668512761599999976e+02 2.071081256229748580e-03 4.178404177795705930e-04
2.757463186986666983e+02 1.988260367087068582e-03 4.041838278310330690e-04
2.846413612373333422e+02 1.912192134534969378e-03 3.975137785995085972e-04
2.935364037760000429e+02 1.842721943541994391e-03 3.997114934490549141e-04
3.024314463146666867e+02 1.778302418484370472e-03 4.093579338529831197e-04
3.113264888533333874e+02 1.716358925724266416e-03 4.228125566083507764e-04
3.202215313920000312e+02 1.653790885814329691e-03 4.358642042011105560e-04
3.291165739306667319e+02 1.587518071634751518e-03 4.449227531705074001e-04
3.380116164693333758e+02 1.515019206377418888e-03 4.475645051123262191e-04
3.469066590080000765e+02 1.434725400617834021e-03 4.426685951404349373e-04
3.558017015466667203e+02 1.346287124028647860e-03 4.303558929284720977e-04
3.646967440853333642e+02 1.250604342587428907e-03 4.117727744593772986e-04
3.735917866240000080e+02 1.149679256773098466e-03 3.887114376081483120e-04
3.824868291626666519e+02 1.046297888423540533e-03 3.631005576054012951e-04
3.913818717013333526e+02 9.436095982170326435e-04 3.365067236838173328e-04
4.002769142399999964e+02 8.446928581660898081e-04 3.098529684084012675e-04
4.091719567786666971e+02 7.521590648888774400e-04 2.834788049013703122e-04
4.180669993173333410e+02 6.678683222242844282e-04 2.574833053604855151e-04
4.269620418560000417e+02 5.927930823129270782e-04 2.321310827111031886e-04
4.358570843946666855e+02 5.270349935245487736e-04 2.080496072161210530e-04
4.447521269333333862e+02 4.699684619846780762e-04 1.861025605635883875e-04
4.536471694720000301e+02 4.204769862618314038e-04 1.670022520738133451e-04
4.625422120106667307e+02 3.772216322530732050e-04 1.509078011860749593e-04
4.714372545493333746e+02 3.388950115020196332e-04 1.372931850072408927e-04
4.803322970880000753e+02 3.044123769009705015e-04 1.252056616241105109e-04
4.892273396266667191e+02 2.730194916259089241e-04 1.137271924801896820e-04
4.981223821653333630e+02 2.443102234867139681e-04 1.023188370349165766e-04
5.070174247040000068e+02 2.181682107162017054e-04 9.090400431269625968e-05
5.159124672426667075e+02 1.946614910356795096e-04 7.974201744098121866e-05
5.248075097813334651e+02 1.739176212296387439e-04 6.923328441845583419e-05
5.337025523199999952e+02 1.560143273125842635e-04 5.975471714620827351e-05
5.425975948586667528e+02 1.409027704435030632e-04 5.157079944174015190e-05
5.514926373973333966e+02 1.283789892886891455e-04 4.480774842999227692e-05
5.603876799360001542e+02 1.180972256908165038e-04 3.945665568384595278e-05
5.692827224746666843e+02 1.096178107818037057e-04 3.538011028918600402e-05
5.781777650133333282e+02 1.024714218037391827e-04 3.232200544256570273e-05
5.870728075520000857e+02 9.622347418691217880e-05 2.995224123289803766e-05
5.959678500906666159e+02 9.052341818106409105e-05 2.793940192127690797e-05
6.048628926293333734e+02 8.513280664779968726e-05 2.602495383502171221e-05
6.137579351680000173e+02 7.992751517033017832e-05 2.406166652099895174e-05
6.226529777066667748e+02 7.488067750448471212e-05 2.201525781494962771e-05
6.315480202453333050e+02 7.003128984247541336e-05 1.993692456892218916e-05
6.404430627840000625e+02 6.545016055682227780e-05 1.792651558815262731e-05
6.493381053226667063e+02 6.120794910571802081e-05 1.608940505949440751e-05
6.582331478613334639e+02 5.735346185443785733e-05 1.450320254875200330e-05
6.671281903999999940e+02 5.390199500430279143e-05 1.319538532599922013e-05
6.760232329386667516e+02 5.083477441236533784e-05 1.214183728415727759e-05
6.849182754773333954e+02 4.810566347987437456e-05 1.128351665467102808e-05
6.938133180160001530e+02 4.565234492368083362e-05 1.055246852181413231e-05
7.027083605546666831e+02 4.340800253072384194e-05 9.894926649480996464e-06
7.116034030933334407e+02 4.131151841566993481e-05 9.284252150673716084e-06
7.204984456320000845e+02 3.931422625610599684e-05 8.720664313091592882e-06
7.293934881706667284e+02 3.738350037317739243e-05 8.219012294227299087e-06
7.382885307093333722e+02 3.550303066514184854e-05 7.789795445304025363e-06
7.471835732480000161e+02 3.367100304843777378e-05 7.423868410313858477e-06
7.560786157866667736e+02 3.189685025400778559e-05 7.091937029083154268e-06
7.649736583253333038e+02 3.019702288500706659e-05 6.758860839816074449e-06
7.738687008640000613e+02 2.859098046346338071e-05 6.401725800872468118e-06
7.827637434026667052e+02 2.709699258946676517e-05 6.019404580187337866e-06
7.916587859413334627e+02 2.572894990105485969e-05 5.628831137994221843e-06
8.005538284799999929e+02 2.449373492994140150e-05 5.252139606650864318e-06
8.094488710186667504e+02 2.339016253314270434e-05 4.902892528935046549e-06
8.183439135573333942e+02 2.240901500646570347e-05 4.578720048490490287e-06
8.272389560960001518e+02 2.153452672343537989e-05 4.264276532628500120e-06
8.361339986346666819e+02 2.074680845208456173e-05 3.940368222262895867e-06
8.450290411733334395e+02 2.002475646466279116e-05 3.593921265878727193e-06
8.539240837120000833e+02 1.934890162603700276e-05 3.225203437214218155e-06
8.628191262506667272e+02 1.870366364260282001e-05 2.851858030124633456e-06
8.717141687893333710e+02 1.807875557517603284e-05 2.508749535375051812e-06
8.806092113280000149e+02 1.746938873664978501e-05 2.239888984828891403e-06
8.895042538666667724e+02 1.687572286480439499e-05 2.076904485433696155e-06
8.983992964053334163e+02 1.630181147880849110e-05 2.013169988111200632e-06
9.072943389440000601e+02 1.575403241762111023e-05 2.003510347703007184e-06
9.161893814826667040e+02 1.523997325499707250e-05 1.995445944799877560e-06
9.250844240213334615e+02 1.476709675610565309e-05 1.958886160163461034e-06
9.339794665600001053e+02 1.434191615262573119e-05 1.895366450056079243e-06
9.428745090986667492e+02 1.396921036294195667e-05 1.831052326972303186e-06
9.517695516373333930e+02 1.365135413981076558e-05 1.798283631294577753e-06
9.606645941760001506e+02 1.338774615388156455e-05 1.812266724050619525e-06
9.695596367146666807e+02 1.317456947282716689e-05 1.859062368705267570e-06
9.784546792533334383e+02 1.300499091977611912e-05 1.906607436362812972e-06
9.873497217920000821e+02 1.286994428713267886e-05 1.925007397223227736e-06
9.962447643306667260e+02 1.275930046739652414e-05 1.900196503999277116e-06
1.005139806869333370e+03 1.266381041261538454e-05 1.837221092355423522e-06
1.014034849408000014e+03 1.257685616732817841e-05 1.757299394433477387e-06
1.022929891946666771e+03 1.249571807766375523e-05 1.689570492100002396e-06
1.031824934485333415e+03 1.242236513435371567e-05 1.658879447247724097e-06
1.040719977024000173e+03 1.236286670742055045e-05 1.673547015383387995e-06
1.049615019562666930e+03 1.232610695791850152e-05 1.722509552171787969e-06
1.058510062101333460e+03 1.232182840864321146e-05 1.785325596903859513e-06
1.067405104639999990e+03 1.235860451527992671e-05 1.845646897120073835e-06
1.076300147178666748e+03 1.244242953418022094e-05 1.899939074478038165e-06
1.085195189717333506e+03 1.257631810248481116e-05 1.958490410465563310e-06
1.094090232256000036e+03 1.276095302937781487e-05 2.040220081101388008e-06
1.102985274794666793e+03 1.299607039785857213e-05 2.163984355093410847e-06
1.111880317333333323e+03 1.328236305174882794e-05 2.341883682559067440e-06
1.120775359872000308e+03 1.362291722662010865e-05 2.577636165437547472e-06
1.129670402410666838e+03 1.402420182334540634e-05 2.868124245053971963e-06
1.138565444949333369e+03 1.449606743571226549e-05 3.203843177441856389e-06
1.147460487488000126e+03 1.505156840287848790e-05 3.568400316194260534e-06
1.156355530026666656e+03 1.570667233968208221e-05 3.940565611747350611e-06
1.165250572565333414e+03 1.648114429720267944e-05 4.300405489747019797e-06
1.174145615104000171e+03 1.740040262893332960e-05 4.637501309113644345e-06
1.183040657642666702e+03 1.849862300592889416e-05 4.958500298293476654e-06
1.191935700181333232e+03 1.982252229846522749e-05 5.293513686875898243e-06
1.200830742720000217e+03 2.143441273934252220e-05 5.703735358330797556e-06
1.209725785258666747e+03 2.341367162956675173e-05 6.291318929752844329e-06
1.218620827797333504e+03 2.585548689733982141e-05 7.199870979273439342e-06
1.227515870336000035e+03 2.886680349649620999e-05 8.585366169180026253e-06
1.236410912874666792e+03 3.256041531967685660e-05 1.056179590702982479e-05
1.245305955413333550e+03 3.704841722322005869e-05 1.316053332786095554e-05
1.254200997952000080e+03 4.243693656091271767e-05 1.632855137327904519e-05
1.263096040490666610e+03 4.882424861891858944e-05 1.995337121333495316e-05
1.271991083029333595e+03 5.630218095904527848e-05 2.389897979908522284e-05
1.280886125568000125e+03 6.496056679752895680e-05 2.804564423963956801e-05
1.289781168106666883e+03 7.489192826552596750e-05 3.232526190103210433e-05
1.298676210645333413e+03 8.619362541328663577e-05 3.674127755438869215e-05
1.307571253183999943e+03 9.896329720329099741e-05 4.135779134125761540e-05
1.316466295722666928e+03 1.132859500125233982e-04 4.625900927005279596e-05
1.325361338261333458e+03 1.292119338361612919e-04 5.149492069351884594e-05
1.334256380799999988e+03 1.467301400265204076e-04 5.704811565635629108e-05
1.343151423338666746e+03 1.657389396850024086e-04 6.284369432912199677e-05
1.352046465877333503e+03 1.860263645494857293e-04 6.879792860231498202e-05
1.360941508416000033e+03 2.072624743274240674e-04 7.487262424789169776e-05
1.369836550954666791e+03 2.290125981046859586e-04 8.109293998439005033e-05
1.378731593493333321e+03 2.507712748036147613e-04 8.750956880808141106e-05
1.387626636032000306e+03 2.720137486485620744e-04 9.411475397351727406e-05
1.396521678570666836e+03 2.922571018170868565e-04 1.007625971221745771e-04
1.405416721109333366e+03 3.111176882174736475e-04 1.071503017755674416e-04
1.414311763648000124e+03 3.283541713319190238e-04 1.128798384803233280e-04
1.423206806186666881e+03 3.438833698686123144e-04 1.175794245678432918e-04
1.432101848725333411e+03 3.577642124654252433e-04 1.210313745563623396e-04
1.440996891264000169e+03 3.701499014717349973e-04 1.232519433493475878e-04
1.449891933802666699e+03 3.812178329949505702e-04 1.244915994640922823e-04
1.458786976341333457e+03 3.910904195376726936e-04 1.251455670987012322e-04
1.467682018880000214e+03 3.997663095593075163e-04 1.256004569410691196e-04
1.476577061418666744e+03 4.070775497258123351e-04 1.260859425879412761e-04
1.485472103957333502e+03 4.126865857017552154e-04 1.265990089013264248e-04
1.494367146496000032e+03 4.161248011914437306e-04 1.269408743366761674e-04
1.503262189034666790e+03 4.168732949713752382e-04 1.268315476929349965e-04
1.512157231573333547e+03 4.144657516742439904e-04 1.260368294437182960e-04
1.521052274112000077e+03 4.085977107743348066e-04 1.244485636387762889e-04
1.529947316650666608e+03 3.992216896558325014e-04 1.220998348360922893e-04
1.538842359189333592e+03 3.866016181549497880e-04 1.191299248062253376e-04
1.547737401728000123e+03 3.713239855246401491e-04 1.157282662463880285e-04
1.556632444266666880e+03 3.542538028600298260e-04 1.120869239015356096e-04
1.565527486805333410e+03 3.364445786555453344e-04 1.083779506257394857e-04
1.574422529343999940e+03 3.190188024927595413e-04 1.047560386781593467e-04
1.583317571882666925e+03 3.030376317458198065e-04 1.013730849759891562e-04
1.592212614421333456e+03 2.893817249611202826e-04 9.838683643385757679e-05
1.601107656959999986e+03 2.786612667679534651e-04 9.594976286644317834e-05
1.610002699498666743e+03 2.711686806213700444e-04 9.417591168177672856e-05
1.618897742037333501e+03 2.668763287170910744e-04 9.310335642965279367e-05
1.627792784576000258e+03 2.654745504624727226e-04 9.267306326118892907e-05
1.636687827114666788e+03 2.664417920784427308e-04 9.274291650235708042e-05
1.645582869653333319e+03 2.691287324082500309e-04 9.313326533165227001e-05
1.654477912192000304e+03 2.728425590688283693e-04 9.367929180342888184e-05
1.663372954730666834e+03 2.769194983715755442e-04 9.426562626372021021e-05
1.672267997269333364e+03 2.807760516468518308e-04 9.482800739632685823e-05
1.681163039808000121e+03 2.839365386640492787e-04 9.532483731321622308e-05
1.690058082346666879e+03 2.860384974924402705e-04 9.569804687210789744e-05
1.698953124885333636e+03 2.868223389012966736e-04 9.584644664389815319e-05
1.707848167424000167e+03 2.861109033933842524e-04 9.562730806244925936e-05
1.716743209962666697e+03 2.837873683539589059e-04 9.489068561637803727e-05
1.725638252501333454e+03 2.797785532380259784e-04 9.353123097588971000e-05
1.734533295040000212e+03 2.740418230896714399e-04 9.153742345135396584e-05
1.743428337578666742e+03 2.665645381540890585e-04 8.901324940026700912e-05
1.752323380117333500e+03 2.573666520790401533e-04 8.615692620781146259e-05
1.761218422656000030e+03 2.465100081408532493e-04 8.319006760732584665e-05
1.770113465194666787e+03 2.341068355916133827e-04 8.025935600065109627e-05
1.779008507733333545e+03 2.203285762022599728e-04 7.735343589954791880e-05
1.787903550272000075e+03 2.054068032366686302e-04 7.428321005016575796e-05
1.796798592810666833e+03 1.896312366717227481e-04 7.074875588453930820e-05
1.805693635349333590e+03 1.733390511993910285e-04 6.645760362805855251e-05
1.814588677888000120e+03 1.568987010040540271e-04 6.124190126237285658e-05
1.823483720426666878e+03 1.406887161071534802e-04 5.512796096052222501e-05
1.832378762965333408e+03 1.250735995638888932e-04 4.834216255898752369e-05
1.841273805504000165e+03 1.103789747630168236e-04 4.126587317822689283e-05
1.850168848042666923e+03 9.687034158638095193e-05 3.435481466974375748e-05
1.859063890581333453e+03 8.473638620393181406e-05 2.804584799215242578e-05
1.867958933120000211e+03 7.407882388384786807e-05 2.266811072027887267e-05
1.876853975658666741e+03 6.491238395920743704e-05 1.837877271027266204e-05
1.885749018197333498e+03 5.717239767823366700e-05 1.514269416456718882e-05
1.894644060736000256e+03 5.072978404887184233e-05 1.277893683445617568e-05
1.903539103274666786e+03 4.541183913800311855e-05 1.106123232477335296e-05
1.912434145813333316e+03 4.102460498794559008e-05 9.806025252516205936e-06
1.921329188352000301e+03 3.737433881202576965e-05 8.896498610108388992e-06
1.930224230890666831e+03 3.428518822185495983e-05 8.256045615651940299e-06
1.939119273429333361e+03 3.161100803171547628e-05 7.818189008775126519e-06
1.948014315968000119e+03 2.924078375628923676e-05 7.517799287912386515e-06
1.956909358506666877e+03 2.709788674794897642e-05 7.295129704882264444e-06
1.965804401045333634e+03 2.513487051355583210e-05 7.099031556416238596e-06
1.974699443584000164e+03 2.332589766131017714e-05 6.886667831186516177e-06
1.983594486122666694e+03 2.165825211753668141e-05 6.624641466771756630e-06
1.992489528661333452e+03 2.012563588295576529e-05 6.293123933221788205e-06
2.001384571200000210e+03 1.872327034822387289e-05 5.889458399408743875e-06
2.010279613738666740e+03 1.744545697700331294e-05 5.428402379099100986e-06
2.019174656277333497e+03 1.628515747380636155e-05 4.937919008222137040e-06
2.028069698816000027e+03 1.523464566542475119e-05 4.451625827411550078e-06
2.036964741354667012e+03 1.428656727486483357e-05 3.999997227939323993e-06
2.045859783893333542e+03 1.343429086209623433e-05 3.602368267971624079e-06
2.054754826432000300e+03 1.267199932061114448e-05 3.262747352347681554e-06
2.063649868970666830e+03 1.199386109766250118e-05 2.971539136096750573e-06
2.072544911509333815e+03 1.139321690680413385e-05 2.712829602431722647e-06
2.081439954048000345e+03 1.086196487694046958e-05 2.472956255090519133e-06
2.090334996586666875e+03 1.039044607822938006e-05 2.245547657078281420e-06
2.099230039125333860e+03 9.968159825746309691e-06 2.031631947963497976e-06
2.108125081664000390e+03 9.584953865422373364e-06 1.836345687237403563e-06
2.117020124202666921e+03 9.232419503672331581e-06 1.665617612699791014e-06
2.125915166741333451e+03 8.905059296592647170e-06 1.524661588521624686e-06
2.134810209279999981e+03 8.600739923724100262e-06 1.417928520335821164e-06
2.143705251818666511e+03 8.320531218709542300e-06 1.348928743299733715e-06
2.152600294357333496e+03 8.067679927444607160e-06 1.318245609197754130e-06
2.161495336896000026e+03 7.846196070452419652e-06 1.321555676969144309e-06
2.170390379434667011e+03 7.659346833721086386e-06 1.350119588702225369e-06
2.179285421973333541e+03 7.508447890377556307e-06 1.393677019045511778e-06
2.188180464512000071e+03 7.392196586373629022e-06 1.443141318600093787e-06
2.197075507050667056e+03 7.306716942765376121e-06 1.491609302553802750e-06
2.205970549589333586e+03 7.246108027308735425e-06 1.533910516819228741e-06
2.214865592128000117e+03 7.203387715971323962e-06 1.566249822661222111e-06
2.223760634666666647e+03 7.171503429142677954e-06 1.586490094604429196e-06
2.232655677205333177e+03 7.144112918512656933e-06 1.594911905165639471e-06
2.241550719744000617e+03 7.116128607291421313e-06 1.595026000805682127e-06
2.250445762282667147e+03 7.083800548438683154e-06 1.593249554553576079e-06
2.259340804821333677e+03 7.044559447780616488e-06 1.597388951395590001e-06
2.268235847360000207e+03 6.996679741841927412e-06 1.613752849456522032e-06
2.277130889898666737e+03 6.938933189966603266e-06 1.644123292612961174e-06
2.286025932437333267e+03 6.870317959101148150e-06 1.684177871536107683e-06
2.294920974976000252e+03 6.789991163925370391e-06 1.724539749156299018e-06
2.303816017514666783e+03 6.697304885058729938e-06 1.753663291052642431e-06
2.312711060053333313e+03 6.591937658639085895e-06 1.761091922911705699e-06
2.321606102592000298e+03 6.474061947402842636e-06 1.739989623230293026e-06
2.330501145130666828e+03 6.344427120535384005e-06 1.688324456881563500e-06
2.339396187669333813e+03 6.204391931830549583e-06 1.608996745715222888e-06
2.348291230208000343e+03 6.055826021837105671e-06 1.508887999423623254e-06
2.357186272746666873e+03 5.900967424835646613e-06 1.397298670726992700e-06
